time,x ref,y ref,theta ref,v ref,omega ref
0,0,0,0,0,0,
0.00505,0.000310581,0,0,0.0615012,0,
0.0101,0.000927306,1.03556e-08,1.67913e-05,0.122124,0.00332501,
0.01515,0.0018458,1.17175e-07,0.000116299,0.18188,0.0197044,
0.0202,0.00306176,6.16178e-07,0.00041038,0.240783,0.0582339,
0.02525,0.00457092,2.20413e-06,0.00105221,0.298844,0.127095,
0.0303,0.0063691,6.21226e-06,0.00222899,0.356076,0.233026,
0.03535,0.00845215,1.48582e-05,0.00415058,0.41249,0.380512,
0.0404,0.010816,3.14831e-05,0.00703291,0.468098,0.570758,
0.04545,0.0134565,6.07315e-05,0.0110762,0.522912,0.800652,
0.0505,0.0163697,0.000108627,0.0164396,0.576943,1.06206,
0.05555,0.0195514,0.000182506,0.023216,0.630201,1.34187,
0.0606,0.0229973,0.000290787,0.0314124,0.682699,1.62305,
0.06565,0.0267031,0.000442593,0.0409411,0.734447,1.88686,
0.0707,0.0306644,0.000647276,0.0516251,0.785456,2.11565,
0.07575,0.0348764,0.000913896,0.0632153,0.835736,2.29508,
0.0808,0.0393345,0.00125081,0.0754311,0.885297,2.41897,
0.08585,0.0440337,0.00166529,0.0879746,0.934151,2.48387,
0.0909,0.0489693,0.00216335,0.100571,0.982306,2.49431,
0.09595,0.0541365,0.00274966,0.112984,1.02977,2.4581,
0.101,0.0595307,0.00342762,0.125029,1.07656,2.38506,
0.10605,0.0651474,0.00419951,0.13657,1.12268,2.28532,
0.1111,0.0709825,0.00506659,0.147519,1.16815,2.16816,
0.11615,0.0770318,0.00602935,0.157828,1.21296,2.04136,
0.1212,0.0832915,0.00708762,0.167478,1.25713,1.91104,
0.12625,0.0897579,0.00824078,0.176476,1.30067,1.78166,
0.1313,0.0964274,0.00948781,0.18484,1.34359,1.65633,
0.13635,0.103297,0.0108275,0.192602,1.3859,1.53703,
0.1414,0.110363,0.0122583,0.199798,1.4276,1.4249,
0.14645,0.117622,0.0137788,0.206467,1.46871,1.32048,
0.1515,0.125072,0.0153874,0.212647,1.50922,1.22389,
0.15655,0.13271,0.0170822,0.218379,1.54916,1.13496,
0.1616,0.140532,0.0188618,0.223698,1.58853,1.05331,
0.16665,0.148536,0.0207245,0.22864,1.62734,0.978531,
0.1717,0.156719,0.0226685,0.233236,1.66559,0.910121,
0.17675,0.16508,0.0246924,0.237516,1.7033,0.847576,
0.1818,0.173614,0.0267945,0.241507,1.74046,0.790389,
0.18685,0.18232,0.0289734,0.245235,1.7771,0.738072,
0.1919,0.191195,0.0312274,0.24872,1.81321,0.690214,
0.19695,0.200236,0.0335553,0.251984,1.84881,0.646358,
0.202,0.209442,0.0359555,0.255045,1.8839,0.606144,
0.20705,0.21881,0.0384267,0.25792,1.91849,0.569218,
0.2121,0.228338,0.0409675,0.260623,1.95258,0.535268,
0.21715,0.238023,0.0435768,0.263168,1.98618,0.504038,
0.2222,0.247863,0.0462532,0.265568,2.01931,0.475239,
0.22725,0.257856,0.0489956,0.267834,2.05196,0.448653,
0.2323,0.267999,0.0518027,0.269976,2.08415,0.424084,
0.23735,0.278292,0.0546734,0.272003,2.11587,0.401398,
0.2424,0.28873,0.0576065,0.273923,2.14715,0.380263,
0.24745,0.299314,0.0606011,0.275745,2.17797,0.360752,
0.2525,0.310039,0.063656,0.277475,2.20836,0.342534,
0.25755,0.320905,0.0667702,0.279119,2.23831,0.325639,
0.2626,0.33191,0.0699427,0.280684,2.26783,0.309864,
0.26765,0.343051,0.0731725,0.282174,2.29694,0.295134,
0.2727,0.354326,0.0764587,0.283595,2.32562,0.281409,
0.27775,0.365734,0.0798003,0.284952,2.3539,0.26854,
0.2828,0.377272,0.0831965,0.286247,2.38177,0.256486,
0.28785,0.38894,0.0866462,0.287485,2.40925,0.245214,
0.2929,0.400734,0.0901488,0.28867,2.43633,0.234616,
0.29795,0.412654,0.0937032,0.289804,2.46302,0.224644,
0.303,0.424697,0.0973087,0.290892,2.48934,0.215274,
0.30805,0.436861,0.100964,0.291934,2.51527,0.206464,
0.3131,0.449146,0.10467,0.292935,2.54084,0.198151,
0.31815,0.461549,0.108423,0.293896,2.56604,0.190302,
0.3232,0.474068,0.112225,0.294819,2.59088,0.182886,
0.32825,0.486703,0.116074,0.295708,2.61537,0.175873,
0.3333,0.49945,0.119969,0.296562,2.63951,0.169245,
0.33835,0.51231,0.123911,0.297385,2.6633,0.162972,
0.3434,0.525279,0.127897,0.298178,2.68675,0.157025,
0.34845,0.538357,0.131927,0.298943,2.70987,0.151382,
0.3535,0.551542,0.136001,0.29968,2.73266,0.146023,
0.35855,0.564832,0.140118,0.300392,2.75512,0.140931,
0.3636,0.578226,0.144277,0.301079,2.77726,0.136089,
0.36865,0.591723,0.148478,0.301743,2.79908,0.131481,
0.3737,0.605321,0.15272,0.302385,2.82059,0.127092,
0.37875,0.619018,0.157002,0.303006,2.8418,0.12291,
0.3838,0.632813,0.161324,0.303606,2.8627,0.118922,
0.38885,0.646706,0.165685,0.304188,2.8833,0.115116,
0.3939,0.660693,0.170085,0.304751,2.90361,0.111481,
0.39895,0.674775,0.174523,0.305296,2.92363,0.108007,
0.404,0.688949,0.178998,0.305825,2.94336,0.104686,
0.40905,0.703215,0.18351,0.306337,2.96282,0.101508,
0.4141,0.71757,0.188058,0.306834,2.98199,0.0984664,
0.41915,0.732015,0.192643,0.307317,3.00089,0.0955569,
0.4242,0.746547,0.197262,0.307786,3.01952,0.092768,
0.42925,0.761165,0.201916,0.308241,3.03788,0.090093,
0.4343,0.775868,0.206605,0.308683,3.05598,0.0875256,
0.43935,0.790656,0.211327,0.309112,3.07382,0.0850601,
0.4444,0.805525,0.216083,0.30953,3.09141,0.082691,
0.44945,0.820476,0.220871,0.309936,3.10875,0.0804153,
0.4545,0.835508,0.225691,0.310331,3.12584,0.0782317,
0.45955,0.850618,0.230544,0.310715,3.14268,0.0761301,
0.4646,0.865807,0.235427,0.31109,3.15928,0.0741063,
0.46965,0.881072,0.240342,0.311454,3.17565,0.0721564,
0.4747,0.896414,0.245286,0.311809,3.19178,0.0702791,
0.47975,0.91183,0.250261,0.312155,3.20768,0.0684738,
0.4848,0.927319,0.255266,0.312492,3.22336,0.0667317,
0.48985,0.942882,0.260299,0.31282,3.23881,0.0650498,
0.4949,0.958515,0.265361,0.31314,3.25404,0.0634269,
0.49995,0.97422,0.270452,0.313453,3.26905,0.0618644,
0.505,0.989994,0.27557,0.313758,3.28385,0.0603538,
0.51005,1.00584,0.280715,0.314055,3.29844,0.0588926,
0.5151,1.02175,0.285888,0.314345,3.31282,0.0574831,
0.52015,1.03772,0.291088,0.314629,3.32699,0.0561212,
0.5252,1.05376,0.296313,0.314905,3.34096,0.0548022,
0.53025,1.06987,0.301565,0.315176,3.35473,0.0535264,
0.5353,1.08604,0.306842,0.31544,3.3683,0.052292,
0.54035,1.10228,0.312144,0.315698,3.38168,0.0510982,
0.5454,1.11857,0.317471,0.31595,3.39487,0.0499415,
0.55045,1.13493,0.322823,0.316197,3.40787,0.0488213,
0.5555,1.15134,0.328198,0.316438,3.42069,0.0477363,
0.56055,1.16782,0.333597,0.316673,3.43332,0.0466843,
0.5656,1.18436,0.33902,0.316904,3.44577,0.045664,
0.57065,1.20095,0.344466,0.31713,3.45804,0.0446751,
0.5757,1.2176,0.349934,0.31735,3.47014,0.0437156,
0.58075,1.2343,0.355425,0.317567,3.48207,0.0427842,
0.5858,1.25106,0.360938,0.317778,3.49382,0.04188,
0.59085,1.26788,0.366473,0.317985,3.50541,0.0410022,
0.5959,1.28475,0.372029,0.318188,3.51683,0.0401498,
0.60095,1.30167,0.377606,0.318386,3.52809,0.0393215,
0.606,1.31864,0.383204,0.318581,3.53919,0.0385166,
0.61105,1.33567,0.388823,0.318771,3.55013,0.037734,
0.6161,1.35274,0.394462,0.318958,3.56091,0.036973,
0.62115,1.36987,0.400121,0.319141,3.57154,0.036233,
0.6262,1.38704,0.405799,0.31932,3.58201,0.0355134,
0.63125,1.40426,0.411497,0.319496,3.59234,0.034813,
0.6363,1.42154,0.417214,0.319669,3.60252,0.0341313,
0.64135,1.43885,0.42295,0.319838,3.61255,0.0334676,
0.6464,1.45622,0.428705,0.320003,3.62244,0.0328214,
0.65145,1.47363,0.434478,0.320166,3.63219,0.0321919,
0.6565,1.49108,0.440269,0.320325,3.6418,0.0315786,
0.66155,1.50858,0.446077,0.320482,3.65128,0.030981,
0.6666,1.52613,0.451904,0.320635,3.66061,0.0303985,
0.67165,1.54372,0.457747,0.320786,3.66982,0.0298307,
0.6767,1.56135,0.463608,0.320934,3.67889,0.029277,
0.68175,1.57902,0.469485,0.321079,3.68783,0.028737,
0.6868,1.59673,0.475379,0.321222,3.69665,0.0282102,
0.69185,1.61448,0.481289,0.321361,3.70534,0.0276962,
0.6969,1.63228,0.487216,0.321499,3.7139,0.0271945,
0.70195,1.65011,0.493158,0.321634,3.72235,0.0267049,
0.707,1.66799,0.499116,0.321766,3.73067,0.0262268,
0.71205,1.6859,0.50509,0.321896,3.73887,0.02576,
0.7171,1.70385,0.511078,0.322024,3.74696,0.025304,
0.72215,1.72183,0.517082,0.322149,3.75493,0.0248585,
0.7272,1.73986,0.5231,0.322273,3.76279,0.0244232,
0.73225,1.75792,0.529133,0.322394,3.77053,0.0239978,
0.7373,1.77601,0.535181,0.322513,3.77816,0.023582,
0.74235,1.79415,0.541242,0.32263,3.78569,0.0231755,
0.7474,1.81231,0.547317,0.322745,3.79311,0.0227781,
0.75245,1.83051,0.553407,0.322858,3.80042,0.0223895,
0.7575,1.84875,0.55951,0.322969,3.80762,0.0220093,
0.76255,1.86701,0.565626,0.323079,3.81473,0.0216373,
0.7676,1.88531,0.571755,0.323186,3.82173,0.0212732,
0.77265,1.90365,0.577898,0.323292,3.82863,0.0209169,
0.7777,1.92201,0.584053,0.323396,3.83544,0.0205682,
0.78275,1.94041,0.590221,0.323498,3.84214,0.0202268,
0.7878,1.95884,0.596401,0.323598,3.84875,0.0198926,
0.79285,1.97729,0.602594,0.323697,3.85527,0.0195652,
0.7979,1.99578,0.608798,0.323794,3.86169,0.0192444,
0.80295,2.0143,0.615015,0.32389,3.86802,0.0189302,
0.808,2.03285,0.621243,0.323984,3.87427,0.0186224,
0.81305,2.05142,0.627483,0.324076,3.88042,0.0183208,
0.8181,2.07003,0.633735,0.324167,3.88648,0.0180251,
0.82315,2.08866,0.639998,0.324257,3.89246,0.0177351,
0.8282,2.10732,0.646272,0.324345,3.89835,0.017451,
0.83325,2.12601,0.652556,0.324432,3.90416,0.0171723,
0.8383,2.14472,0.658852,0.324517,3.90988,0.016899,
0.84335,2.16346,0.665158,0.324601,3.91553,0.0166308,
0.8484,2.18223,0.671475,0.324684,3.92109,0.0163679,
0.85345,2.20102,0.677803,0.324765,3.92657,0.0161098,
0.8585,2.21984,0.68414,0.324845,3.93198,0.0158565,
0.86355,2.23868,0.690488,0.324924,3.9373,0.0156079,
0.8686,2.25755,0.696845,0.325002,3.94255,0.015364,
0.87365,2.27644,0.703212,0.325078,3.94773,0.0151244,
0.8787,2.29536,0.709589,0.325153,3.95283,0.0148891,
0.88375,2.3143,0.715975,0.325227,3.95786,0.0146581,
0.8888,2.33324,0.722365,0.3253,3.95885,0.0144168,
0.89385,2.35216,0.728748,0.325371,3.95391,0.0141589,
0.8989,2.37111,0.73514,0.325442,3.95892,0.0139421,
0.90395,2.39002,0.741525,0.325511,3.95398,0.0136949,
0.909,2.40897,0.74792,0.325579,3.95899,0.0134868,
0.91405,2.42789,0.754308,0.325646,3.95405,0.0132496,
0.9191,2.44678,0.76069,0.325712,3.94904,0.013017,
0.92415,2.4657,0.76708,0.325776,3.95412,0.0128222,
0.9292,2.48459,0.773464,0.32584,3.94911,0.0125989,
0.93425,2.50351,0.779857,0.325903,3.9542,0.0124117,
0.9393,2.5224,0.786244,0.325964,3.94919,0.0121968,
0.94435,2.54131,0.792636,0.326025,3.95224,0.0120107,
0.9494,2.56019,0.799022,0.326085,3.9472,0.0118039,
0.95445,2.5791,0.805416,0.326143,3.95231,0.011631,
0.9595,2.59798,0.811804,0.326201,3.94727,0.0114318,
0.96455,2.61684,0.818185,0.326258,3.94216,0.0112362,
0.9696,2.63572,0.824574,0.326314,3.94734,0.0110734,
0.97465,2.65458,0.830957,0.326369,3.94224,0.0108851,
0.9797,2.67346,0.837349,0.326423,3.94742,0.0107281,
0.98475,2.69232,0.843734,0.326476,3.94231,0.0105463,
0.9898,2.71118,0.850122,0.326529,3.94335,0.0103839,
0.99485,2.73002,0.856502,0.32658,3.93818,0.0102084,
0.9999,2.74888,0.862891,0.326631,3.94342,0.0100626,
1.00495,2.76771,0.869273,0.326681,3.93826,0.00989311,
1.01,2.78658,0.875665,0.32673,3.94349,0.00975226,
1.01505,2.80541,0.882049,0.326779,3.93833,0.00958832,
1.0201,2.82422,0.888426,0.326826,3.93309,0.00942701,
1.02515,2.84306,0.894812,0.326873,3.9384,0.00929368,
1.0302,2.86187,0.90119,0.326919,3.93317,0.00913773,
1.03525,2.8807,0.907578,0.326965,3.93848,0.00900864,
1.0403,2.89951,0.913958,0.32701,3.93325,0.00885761,
1.04535,2.91833,0.920341,0.327054,3.93431,0.00872311,
1.0504,2.93712,0.926716,0.327097,3.92901,0.00857681,
1.05545,2.95593,0.9331,0.32714,3.93438,0.00845594,
1.0605,2.97472,0.939477,0.327182,3.92909,0.00831421,
1.06555,2.99354,0.945863,0.327223,3.93446,0.00819693,
1.0706,3.01233,0.952242,0.327264,3.92917,0.00805942,
1.07565,3.03109,0.958612,0.327304,3.9238,0.00792392,
1.0807,3.04988,0.964992,0.327343,3.92924,0.00781223,
1.08575,3.06864,0.971364,0.327382,3.92388,0.00768083,
1.0908,3.08743,0.977746,0.32742,3.92932,0.00757227,
1.09585,3.10619,0.984119,0.327458,3.92395,0.0074446,
1.1009,3.12496,0.990495,0.327495,3.92504,0.00733093,
1.10595,3.1437,0.996863,0.327531,3.91962,0.00720681,
1.111,3.16247,1.00324,0.327567,3.92512,0.0071045,
1.11605,3.18121,1.00961,0.327602,3.9197,0.00698388,
1.1211,3.19997,1.01599,0.327637,3.923,0.00688036,
1.12615,3.2187,1.02235,0.327671,3.91754,0.00676301,
1.1312,3.23746,1.02873,0.327705,3.92307,0.00666607,
1.13625,3.25619,1.0351,0.327738,3.91762,0.00655184,
1.1413,3.27489,1.04146,0.327771,3.91209,0.00643913,
1.14635,3.29363,1.04783,0.327803,3.9177,0.00634619,
1.1514,3.31233,1.05419,0.327834,3.91217,0.00623649,
1.15645,3.33106,1.06056,0.327865,3.91778,0.0061458,
1.1615,3.34976,1.06692,0.327896,3.91225,0.00603883,
1.16655,3.36846,1.07328,0.327926,3.91113,0.00594002,
1.1716,3.38717,1.07965,0.327955,3.91225,0.00584585,
1.17665,3.40584,1.086,0.327984,3.90664,0.00574284,
1.1817,3.42455,1.09237,0.328013,3.91233,0.00565761,
1.18675,3.44322,1.09872,0.328041,3.90672,0.00555716,
1.1918,3.46192,1.10509,0.328068,3.91014,0.00547063,
1.19685,3.48058,1.11144,0.328095,3.9045,0.00537249,
1.2019,3.49928,1.1178,0.328122,3.91022,0.00529105,
1.20695,3.51794,1.12416,0.328148,3.90458,0.00519523,
1.212,3.53658,1.13051,0.328174,3.89886,0.00510049,
1.21705,3.55525,1.13686,0.3282,3.90466,0.00502186,
1.2221,3.57389,1.14321,0.328224,3.89894,0.00492936,
1.22715,3.59255,1.14957,0.328249,3.90474,0.00485229,
1.2322,3.61119,1.15591,0.328273,3.89903,0.00476176,
1.23725,3.62981,1.16226,0.328297,3.89555,0.004675,
1.2423,3.64846,1.16861,0.32832,3.90139,0.00460031,
1.24735,3.66708,1.17495,0.328343,3.89563,0.00451271,
1.2524,3.6857,1.1813,0.328365,3.89446,0.00443136,
1.25745,3.70432,1.18764,0.328387,3.89563,0.00435348,
1.2625,3.72292,1.19398,0.328409,3.88979,0.00426861,
1.26755,3.74154,1.20032,0.32843,3.89572,0.00419746,
1.2726,3.76013,1.20666,0.328451,3.88987,0.00411433,
1.27765,3.77874,1.213,0.328471,3.89343,0.00404187,
1.2827,3.79732,1.21934,0.328491,3.88755,0.00396037,
1.28775,3.81592,1.22568,0.328511,3.89113,0.00388924,
1.2928,3.83449,1.23201,0.32853,3.88522,0.00380931,
1.29785,3.85309,1.23835,0.328549,3.89121,0.00374171,
1.3029,3.87167,1.24468,0.328567,3.8853,0.00366329,
1.30795,3.89021,1.251,0.328585,3.87931,0.00358561,
1.313,3.90878,1.25733,0.328603,3.88539,0.00351978,
1.31805,3.92732,1.26366,0.32862,3.8794,0.00344357,
1.3231,3.94589,1.26999,0.328638,3.88547,0.00337862,
1.32815,3.96444,1.27631,0.328654,3.87948,0.00330372,
1.3332,3.98296,1.28263,0.328671,3.87584,0.00323152,
1.33825,4.00152,1.28896,0.328687,3.88197,0.003168,
1.3433,4.02004,1.29528,0.328702,3.87592,0.00309503,
1.34835,4.03855,1.30159,0.328717,3.87225,0.00302461,
1.3534,4.05709,1.30791,0.328732,3.87843,0.00296238,
1.35845,4.07559,1.31423,0.328747,3.87234,0.00289124,
1.3635,4.0941,1.32054,0.328761,3.8711,0.00282429,
1.36855,4.11259,1.32685,0.328775,3.86986,0.00275785,
1.3736,4.13108,1.33316,0.328789,3.86862,0.00269189,
1.37865,4.14957,1.33946,0.328802,3.86737,0.0026264,
1.3837,4.16806,1.34577,0.328815,3.86862,0.00256303,
1.38875,4.18652,1.35207,0.328828,3.86239,0.00249517,
1.3938,4.20501,1.35838,0.32884,3.86871,0.00243586,
1.39885,4.22347,1.36468,0.328852,3.86248,0.00236901,
1.4039,4.24193,1.37098,0.328864,3.86374,0.00230718,
1.40895,4.26037,1.37727,0.328875,3.85744,0.00224128,
1.414,4.27884,1.38358,0.328886,3.86383,0.00218315,
1.41905,4.29727,1.38987,0.328897,3.85753,0.00211817,
1.4241,4.31571,1.39616,0.328907,3.85881,0.00205774,
1.42915,4.33413,1.40245,0.328917,3.85244,0.00199363,
1.4342,4.35257,1.40874,0.328927,3.8589,0.00193651,
1.43925,4.37098,1.41503,0.328936,3.85253,0.00187323,
1.4443,4.38941,1.42132,0.328945,3.85641,0.00181525,
1.44935,4.40781,1.4276,0.328954,3.85,0.00175273,
1.4544,4.42623,1.43389,0.328963,3.8539,0.00169523,
1.45945,4.44462,1.44016,0.328971,3.84746,0.00163346,
1.4645,4.46303,1.44645,0.328979,3.85138,0.00157641,
1.46955,4.4814,1.45272,0.328987,3.8449,0.00151536,
1.4746,4.49979,1.459,0.328994,3.84884,0.00145871,
1.47965,4.51816,1.46527,0.329001,3.84233,0.00139834,
1.4847,4.53654,1.47154,0.329008,3.84629,0.00134207,
1.48975,4.55489,1.47781,0.329014,3.83974,0.00128235,
1.4948,4.57326,1.48408,0.329021,3.84373,0.00122641,
1.49985,4.5916,1.49034,0.329026,3.83714,0.00116731,
1.5049,4.60996,1.49661,0.329032,3.84115,0.00111167,
1.50995,4.62828,1.50287,0.329037,3.83452,0.00105315,
1.515,4.64663,1.50913,0.329042,3.83856,0.000997774,
1.52005,4.66494,1.51539,0.329047,3.83189,0.000939802,
1.5251,4.68327,1.52165,0.329052,3.83595,0.000884664,
1.53015,4.70157,1.52789,0.329056,3.82925,0.000827209,
1.5352,4.71989,1.53415,0.32906,3.83333,0.000772271,
1.54025,4.73818,1.5404,0.329063,3.82659,0.000715301,
1.5453,4.75649,1.54665,0.329067,3.83069,0.00066053,
1.55035,4.77476,1.55289,0.32907,3.82391,0.000604016,
1.5554,4.79305,1.55913,0.329073,3.82804,0.00054938,
1.56045,4.81132,1.56537,0.329075,3.82122,0.000493292,
1.5655,4.82958,1.57161,0.329077,3.82261,0.000438445,
1.57055,4.84782,1.57784,0.329079,3.81572,0.000382803,
1.5756,4.86609,1.58408,0.329081,3.8227,0.000328667,
1.58065,4.88432,1.5903,0.329082,3.81582,0.000273381,
1.5857,4.90257,1.59653,0.329083,3.81721,0.000218804,
1.59075,4.92078,1.60275,0.329084,3.81025,0.000163872,
1.5958,4.93902,1.60898,0.329085,3.81731,0.000109628,
1.60085,4.95723,1.6152,0.329085,3.81035,5.49945e-05,
1.6059,4.97543,1.62142,0.329085,3.80894,5.67262e-07,
1.61095,4.99363,1.62763,0.329085,3.80752,-5.37838e-05,
1.616,5.01182,1.63384,0.329084,3.8061,-0.000108082,
1.62105,5.03,1.64005,0.329083,3.80467,-0.000162333,
1.6261,5.04818,1.64626,0.329082,3.80324,-0.000216546,
1.63115,5.06634,1.65246,0.329081,3.80181,-0.000270726,
1.6362,5.08451,1.65867,0.329079,3.80037,-0.000324882,
1.64125,5.10266,1.66487,0.329077,3.79893,-0.000379019,
1.6463,5.12081,1.67106,0.329075,3.79748,-0.000433146,
1.65135,5.13895,1.67726,0.329073,3.79604,-0.000487268,
1.6564,5.15707,1.68345,0.32907,3.79167,-0.000540979,
1.66145,5.17523,1.68965,0.329067,3.79901,-0.000596425,
1.6665,5.19335,1.69583,0.329064,3.79178,-0.000649672,
1.67155,5.21145,1.70201,0.32906,3.78738,-0.000703326,
1.6766,5.22958,1.70821,0.329056,3.79477,-0.000759241,
1.68165,5.24768,1.71439,0.329052,3.78749,-0.000812327,
1.6867,5.26575,1.72056,0.329048,3.78009,-0.00086529,
1.69175,5.28385,1.72674,0.329043,3.78759,-0.000921674,
1.6968,5.30192,1.73291,0.329038,3.7802,-0.000974561,
1.70185,5.32,1.73908,0.329033,3.7847,-0.0010306,
1.7069,5.33806,1.74524,0.329028,3.77727,-0.00108349,
1.71195,5.35612,1.75141,0.329022,3.77877,-0.00113897,
1.717,5.37414,1.75756,0.329016,3.77126,-0.00119177,
1.72205,5.3922,1.76373,0.329009,3.77888,-0.00124946,
1.7271,5.41022,1.76988,0.329003,3.77137,-0.00130231,
1.73215,5.42824,1.77604,0.328996,3.76984,-0.00135727,
1.7372,5.44625,1.78218,0.328989,3.76831,-0.00141234,
1.74225,5.46425,1.78833,0.328981,3.76678,-0.00146752,
1.7473,5.48225,1.79447,0.328974,3.76524,-0.00152284,
1.75235,5.50022,1.80061,0.328966,3.76062,-0.001577,
1.7574,5.51823,1.80676,0.328958,3.76839,-0.00163657,
1.76245,5.5362,1.81289,0.328949,3.76073,-0.00168966,
1.7675,5.55414,1.81901,0.32894,3.75296,-0.00174271,
1.77255,5.57211,1.82515,0.328931,3.76084,-0.00180315,
1.7776,5.59005,1.83127,0.328922,3.75307,-0.00185634,
1.78265,5.60801,1.8374,0.328912,3.7578,-0.00191592,
1.7877,5.62593,1.84352,0.328902,3.74998,-0.00196932,
1.79275,5.64386,1.84964,0.328892,3.75157,-0.00202779,
1.7978,5.66175,1.85574,0.328881,3.74366,-0.0020813,
1.80285,5.67968,1.86186,0.328871,3.75168,-0.00214387,
1.8079,5.69758,1.86797,0.328859,3.74378,-0.00219764,
1.81295,5.71545,1.87407,0.328848,3.73897,-0.00225333,
1.818,5.73336,1.88018,0.328836,3.74705,-0.00231709,
1.82305,5.75123,1.88627,0.328824,3.73908,-0.00237125,
1.8281,5.76906,1.89236,0.328812,3.731,-0.00242542,
1.83315,5.78693,1.89846,0.3288,3.7392,-0.00249039,
1.8382,5.80476,1.90454,0.328787,3.73112,-0.00254487,
1.84325,5.8226,1.91063,0.328774,3.73276,-0.00260623,
1.8483,5.8404,1.9167,0.32876,3.72458,-0.00266099,
1.85335,5.85825,1.92279,0.328746,3.73287,-0.0027278,
1.8584,5.87605,1.92886,0.328732,3.7247,-0.00278297,
1.86345,5.89383,1.93492,0.328718,3.71973,-0.00284072,
1.8685,5.91165,1.941,0.328703,3.72809,-0.00290902,
1.87355,5.92943,1.94706,0.328688,3.71985,-0.0029648,
1.8786,5.94717,1.95311,0.328673,3.71149,-0.00302064,
1.88365,5.96495,1.95918,0.328657,3.71997,-0.00309048,
1.8887,5.98269,1.96523,0.328642,3.71161,-0.00314678,
1.89375,6.00044,1.97128,0.328625,3.71331,-0.00321195,
1.8988,6.01814,1.97732,0.328609,3.70486,-0.00326867,
1.90385,6.03589,1.98337,0.328592,3.71343,-0.00334079,
1.9089,6.0536,1.98941,0.328575,3.70498,-0.00339809,
